# IR Spectrum
# X-Axis:  Frequency (cm-1)
# Y-Axis:  &epsilon; (M-1 cm-1)

# Peak information
#                  X                   Y
#     103.4186000000      297.0640716817
#     203.6293000000        2.2059995626
#     217.9317000000       95.9402957451
#     286.7147000000        8.4904272114
#     438.0739000000        0.6065046709
#     449.2077000000        4.4005176436
#     529.6553000000       17.5090350002
#     628.4113000000       79.8969750899
#     631.9390000000      138.5306770256
#     681.7667000000        3.5015723143
#     764.4059000000        3.9658813216
#     783.7606000000      714.0535368614
#     801.3094000000      154.0985617634
#     912.0217000000        0.4041793297
#     941.1918000000       39.0020823975
#    1021.2437000000      230.1110332275
#    1116.9485000000       36.5291353393
#    1162.7544000000        1.9810529689
#    1178.3870000000      132.9106238382
#    1215.0588000000      192.7836349793
#    1265.1690000000      111.5712202149
#    1408.3910000000      211.1858961081
#    1478.7168000000        7.1377755967
#    1502.9247000000       16.9009745847
#    1522.0426000000       29.4793013731
#    1539.3449000000       45.9102933481
#    1598.2488000000      214.2142642937
#    3003.4807000000       55.8622828462
#    3069.7006000000       60.4617704131
#    3152.6299000000       26.9489931676
#    3223.1905000000        1.4463959845
#    3274.0441000000        0.8333268568
#    3289.0585000000        4.9594277727

# Spectra
#                  X                   Y               DY/DX
        0.0000000000        0.0397547885        0.0007676647
        1.7500000000        0.0411330151        0.0008079081
        3.5000000000        0.0425841354        0.0008510127
        5.2500000000        0.0441133789        0.0008972372
        7.0000000000        0.0457264526        0.0009468690
        8.7500000000        0.0474295935        0.0010002275
       10.5000000000        0.0492296298        0.0010576691
       12.2500000000        0.0511340485        0.0011195917
       14.0000000000        0.0531510734        0.0011864405
       15.7500000000        0.0552897542        0.0012587150
       17.5000000000        0.0575600672        0.0013369766
       19.2500000000        0.0599730322        0.0014218578
       21.0000000000        0.0625408456        0.0015140728
       22.7500000000        0.0652770349        0.0016144306
       24.5000000000        0.0681966359        0.0017238494
       26.2500000000        0.0713163999        0.0018433741
       28.0000000000        0.0746550330        0.0019741979
       29.7500000000        0.0782334766        0.0021176867
       31.5000000000        0.0820752349        0.0022754093
       33.2500000000        0.0862067611        0.0024491732
       35.0000000000        0.0906579112        0.0026410683
       36.7500000000        0.0954624835        0.0028535194
       38.5000000000        0.1006588582        0.0030893505
       40.2500000000        0.1062907635        0.0033518636
       42.0000000000        0.1124081935        0.0036449358
       43.7500000000        0.1193119470        0.0039761823
       45.5000000000        0.1265866587        0.0043450352
       47.2500000000        0.1345469627        0.0047608888
       49.0000000000        0.1432816579        0.0052314603
       50.7500000000        0.1528943717        0.0057660357
       52.5000000000        0.1635066269        0.0063758533
       54.2500000000        0.1752616739        0.0070745999
       56.0000000000        0.1883293130        0.0078790534
       57.7500000000        0.2029120087        0.0088099275
       59.5000000000        0.2307911654        0.0100385540
       61.2500000000        0.2494424043        0.0113110419
       63.0000000000        0.2705111942        0.0128091296
       64.7500000000        0.2944361231        0.0145850279
       66.5000000000        0.3217597422        0.0167060871
       68.2500000000        0.3531594749        0.0192601508
       70.0000000000        0.3894897470        0.0223631736
       71.7500000000        0.4318402136        0.0261702339
       73.5000000000        0.4816174660        0.0308917269
       75.2500000000        0.5406616063        0.0368176271
       77.0000000000        0.6114156264        0.0443545877
       78.7500000000        0.6971764970        0.0540839596
       80.5000000000        0.8024757166        0.0668547852
       82.2500000000        0.9336703826        0.0839369506
       84.0000000000        1.0998865415        0.1072810407
       85.7500000000        1.3145708380        0.1399738563
       87.5000000000        1.5981290895        0.1870655912
       89.2500000000        1.9825792393        0.2571287337
       91.0000000000        2.5200791126        0.3653052180
       92.7500000000        3.2991602931        0.5394379504
       94.5000000000        4.4765406234        0.8324241852
       96.2500000000        6.3390870154        1.3447187258
       98.0000000000        9.4082097923        2.2431093025
       99.7500000000       14.4764809638        3.6006834359
      101.5000000000       21.6585094607        4.2188476550
      103.2500000000       26.5897827726        0.5593054937
      105.0000000000       23.0401287992       -3.9344109481
      106.7500000000       15.7383787361       -3.8633335048
      108.5000000000       10.2071442136       -2.4739352164
      110.2500000000        6.8206792739       -1.4809603868
      112.0000000000        4.7769498332       -0.9090260974
      113.7500000000        3.4968560641       -0.5835463883
      115.5000000000        2.6576029855       -0.3916973959
      117.2500000000        2.0834729457       -0.2735099005
      119.0000000000        1.6759567758       -0.1975405946
      120.7500000000        1.3774931856       -0.1468137331
      122.5000000000        1.1530197648       -0.1117936658
      124.2500000000        0.9803464600       -0.0869045210
      126.0000000000        0.8449424090       -0.0687612663
      127.7500000000        0.7383356451       -0.0552210426
      129.5000000000        0.6510911870       -0.0449401358
      131.2500000000        0.5796932908       -0.0369861976
      133.0000000000        0.5206500961       -0.0307345345
      134.7500000000        0.4713858260       -0.0257497109
      136.5000000000        0.4299693490       -0.0217221264
      138.2500000000        0.3949318732       -0.0184276411
      140.0000000000        0.3651419995       -0.0157012757
      141.7500000000        0.3397185085       -0.0134197177
      143.5000000000        0.3179684775       -0.0114894592
      145.2500000000        0.2993427192       -0.0098386069
      147.0000000000        0.2834032745       -0.0084111347
      148.7500000000        0.2697994303       -0.0071627825
      150.5000000000        0.2582498633       -0.0060580868
      152.2500000000        0.2485292544       -0.0050681932
      154.0000000000        0.2404582217       -0.0041692204
      155.7500000000        0.2338957578       -0.0033410102
      157.5000000000        0.2287336022       -0.0025661515
      159.2500000000        0.2248921429       -0.0018291954
      161.0000000000        0.2223175727       -0.0011159986
      162.7500000000        0.2209801164       -0.0004131477
      164.5000000000        0.2208732250        0.0002925762
      166.2500000000        0.2220137002        0.0010147310
      168.0000000000        0.2244427767        0.0017677825
      169.7500000000        0.2282282626        0.0025677517
      171.5000000000        0.2334679210        0.0034329964
      173.2500000000        0.2402943858        0.0043851975
      175.0000000000        0.2488820554        0.0054506537
      176.7500000000        0.2594566278        0.0066620351
      178.5000000000        0.2723082647        0.0080608259
      180.2500000000        0.2878098863        0.0097008187
      182.0000000000        0.3064429047        0.0116532485
      183.7500000000        0.3288340587        0.0140145562
      185.5000000000        0.3558093174        0.0169185110
      187.2500000000        0.3884749456        0.0205558269
      189.0000000000        0.4283434758        0.0252072118
      190.7500000000        0.4775371484        0.0313015331
      192.5000000000        0.5391309902        0.0395226685
      194.2500000000        0.6177571190        0.0510115588
      196.0000000000        0.7206994270        0.0677373745
      197.7500000000        0.8597911292        0.0930002354
      199.5000000000        1.0535468504        0.1306415124
      201.2500000000        1.3212733255        0.1739983873
      203.0000000000        1.6402292362        0.1799751763
      204.7500000000        1.9344904416        0.1646226996
      206.5000000000        2.2778237837        0.2464736791
      208.2500000000        2.8518193923        0.4241694134
      210.0000000000        3.8257232954        0.7129496334
      211.7500000000        5.4638706114        1.2035142739
      213.5000000000        8.2277743672        2.0122291222
      215.2500000000       12.5780594491        2.8831848984
      217.0000000000       17.2526534474        1.8931767892
      218.7500000000       17.4500418113       -1.7103550758
      220.5000000000       12.8848955925       -2.9181358394
      222.2500000000        8.4197607823       -2.0870004726
      224.0000000000        5.5384910406       -1.2620672207
      225.7500000000        3.8073711510       -0.7630660446
      227.5000000000        2.7424022752       -0.4804281423
      229.2500000000        2.0573915529       -0.3166935837
      231.0000000000        1.5966780393       -0.2177227670
      232.7500000000        1.2743371195       -0.1552118452
      234.5000000000        1.0410737963       -0.1141068989
      236.2500000000        0.8673885515       -0.0860985826
      238.0000000000        0.7349112188       -0.0664101200
      239.7500000000        0.6317856994       -0.0521863345
      241.5000000000        0.5501150692       -0.0416584358
      243.2500000000        0.4844927774       -0.0336945443
      245.0000000000        0.4311281708       -0.0275487374
      246.7500000000        0.3873091755       -0.0227159831
      248.5000000000        0.3510628144       -0.0188455175
      250.2500000000        0.3209355431       -0.0156875085
      252.0000000000        0.2958483973       -0.0130592038
      253.7500000000        0.2750003300       -0.0108227303
      255.5000000000        0.2578037221       -0.0088699346
      257.2500000000        0.2438424246       -0.0071114161
      259.0000000000        0.2328467549       -0.0054678499
      260.7500000000        0.2246827491       -0.0038621452
      262.5000000000        0.2193554093       -0.0022110474
      264.2500000000        0.2005760709       -0.0002100066
      266.0000000000        0.2019656163        0.0018579912
      267.7500000000        0.2073501900        0.0043940310
      269.5000000000        0.2177836388        0.0076881714
      271.2500000000        0.2349679853        0.0122083867
      273.0000000000        0.2616794111        0.0187475662
      274.7500000000        0.3025609570        0.0287127373
      276.5000000000        0.3656485098        0.0447091171
      278.2500000000        0.4655190477        0.0717060087
      280.0000000000        0.6284796388        0.1189992247
      281.7500000000        0.9021362145        0.2005344743
      283.5000000000        1.3495698271        0.3107561474
      285.2500000000        1.9243376695        0.2982955513
      287.0000000000        2.1597834869       -0.0762143067
      288.7500000000        1.7337770219       -0.3401722123
      290.5000000000        1.1694850577       -0.2792228284
      292.2500000000        0.7778512661       -0.1731284964
      294.0000000000        0.5404956304       -0.1043466679
      295.7500000000        0.3953916923       -0.0651824185
      297.5000000000        0.3027362034       -0.0427095758
      299.2500000000        0.2406964505       -0.0292886202
      301.0000000000        0.1973222794       -0.0209054335
      302.7500000000        0.1658410390       -0.0154435180
      304.5000000000        0.1422483805       -0.0117486687
      306.2500000000        0.1240771929       -0.0091655001
      308.0000000000        0.1097493279       -0.0073067850
      309.7500000000        0.0982209315       -0.0059351736
      311.5000000000        0.0887807892       -0.0049002721
      313.2500000000        0.0809314443       -0.0041039070
      315.0000000000        0.0743167513       -0.0034802636
      316.7500000000        0.0686763833       -0.0029841541
      318.5000000000        0.0638164802       -0.0025838797
      320.2500000000        0.0595902430       -0.0022567694
      322.0000000000        0.0558848163       -0.0019863214
      323.7500000000        0.0526122430       -0.0017603307
      325.5000000000        0.0497031107       -0.0015696378
      327.2500000000        0.0471020153       -0.0014072757
      329.0000000000        0.0447642717       -0.0012678795
      330.7500000000        0.0426534951       -0.0011472700
      332.5000000000        0.0407397999       -0.0010421572
      334.2500000000        0.0389984414       -0.0009499249
      336.0000000000        0.0374087817       -0.0008684735
      337.7500000000        0.0359534932       -0.0007961029
      339.5000000000        0.0346179391       -0.0007314249
      341.2500000000        0.0333896891       -0.0006732968
      343.0000000000        0.0322581353       -0.0006207709
      344.7500000000        0.0312141875       -0.0005730549
      346.5000000000        0.0302500284       -0.0005294816
      348.2500000000        0.0293589170       -0.0004894849
      350.0000000000        0.0285350285       -0.0004525808
      351.7500000000        0.0277733247       -0.0004183521
      353.5000000000        0.0270694477       -0.0003864365
      355.2500000000        0.0264196339       -0.0003565160
      357.0000000000        0.0258206427       -0.0003283093
      358.7500000000        0.0252696988       -0.0003015649
      360.5000000000        0.0247644457       -0.0002760549
      362.2500000000        0.0243029084       -0.0002515707
      364.0000000000        0.0236415207       -0.0002249026
      365.7500000000        0.0232680663       -0.0002019950
      367.5000000000        0.0229342650       -0.0001795559
      369.2500000000        0.0226394473       -0.0001574139
      371.0000000000        0.0274866186       -0.0000711063
      372.7500000000        0.0273833550       -0.0000468708
      374.5000000000        0.0273227598       -0.0000223110
      376.2500000000        0.0273055684        0.0000027668
      378.0000000000        0.0160290042        0.0001697198
      379.7500000000        0.0163452783        0.0001919475
      381.5000000000        0.0167016315        0.0002155665
      383.2500000000        0.0171007287        0.0002408456
      385.0000000000        0.0175457373        0.0002680913
      386.7500000000        0.0180404005        0.0002976570
      388.5000000000        0.0185891288        0.0003299542
      390.2500000000        0.0191971140        0.0003654666
      392.0000000000        0.0198704700        0.0004047678
      393.7500000000        0.0206164089        0.0004485437
      395.5000000000        0.0214434624        0.0004976218
      397.2500000000        0.0223617610        0.0005530089
      399.0000000000        0.0233833893        0.0006159412
      400.7500000000        0.0245228423        0.0006879499
      402.5000000000        0.0257976164        0.0007709510
      404.2500000000        0.0272289830        0.0008673667
      406.0000000000        0.0288430138        0.0009802935
      407.7500000000        0.0306719559        0.0011137394
      409.5000000000        0.0327561044        0.0012729613
      411.2500000000        0.0351463918        0.0014649581
      413.0000000000        0.0379080347        0.0016992040
      414.7500000000        0.0411257710        0.0019887642
      416.5000000000        0.0449115564        0.0023520412
      418.2500000000        0.0494161618        0.0028155843
      420.0000000000        0.0548471640        0.0034187642
      421.7500000000        0.0614977782        0.0042218334
      423.5000000000        0.0697947873        0.0053203847
      425.2500000000        0.0803814994        0.0068723542
      427.0000000000        0.0942675179        0.0091503492
      428.7500000000        0.1131096644        0.0126449258
      430.5000000000        0.1397473156        0.0182586148
      432.2500000000        0.1791513576        0.0275542338
      434.0000000000        0.2393615434        0.0421408150
      435.7500000000        0.3271589514        0.0566440001
      437.5000000000        0.4211154012        0.0435416070
      439.2500000000        0.4669325155        0.0128091894
      441.0000000000        0.4963333763        0.0293407205
      442.7500000000        0.5904663612        0.0826351077
      444.5000000000        0.8012813920        0.1631140785
      446.2500000000        1.1713406806        0.2562829620
      448.0000000000        1.6207758151        0.2120218276
      449.7500000000        1.7258008749       -0.1151349931
      451.5000000000        1.3288468200       -0.2800875367
      453.2500000000        0.8841288329       -0.2130621401
      455.0000000000        0.5881245657       -0.1300244327
      456.7500000000        0.4101237693       -0.0781743361
      458.5000000000        0.3015181549       -0.0487043796
      460.2500000000        0.2324910240       -0.0316746019
      462.0000000000        0.1867635592       -0.0214063438
      463.7500000000        0.1553865412       -0.0149232480
      465.5000000000        0.1332574878       -0.0106477550
      467.2500000000        0.1173441191       -0.0077130388
      469.0000000000        0.1331414421       -0.0052795645
      470.7500000000        0.1253258038       -0.0037260720
      472.5000000000        0.1675918664       -0.0019389881
      474.2500000000        0.1650702609       -0.0009763206
      476.0000000000        0.1640777253       -0.0001807580
      477.7500000000        0.1643720773        0.0005019714
      479.5000000000        0.1657917582        0.0011109015
      481.2500000000        0.1682344562        0.0016754488
      483.0000000000        0.1716436797        0.0022190552
      484.7500000000        0.1760006084        0.0027616804
      486.5000000000        0.1813196718        0.0033216334
      488.2500000000        0.1876469953        0.0039170604
      490.0000000000        0.1950613105        0.0045673064
      491.7500000000        0.2036772766        0.0052943372
      493.5000000000        0.2136514695        0.0061243991
      495.2500000000        0.2251916393        0.0070901351
      497.0000000000        0.2385702760        0.0082334510
      498.7500000000        0.2541441495        0.0096095651
      500.5000000000        0.2723824419        0.0112929197
      502.2500000000        0.2939076062        0.0133860426
      504.0000000000        0.3195555630        0.0160331738
      505.7500000000        0.3504660380        0.0194417536
      507.5000000000        0.3882211145        0.0239172307
      509.2500000000        0.4350630936        0.0299210865
      511.0000000000        0.4942468017        0.0381706387
      512.7500000000        0.5706274275        0.0498166323
      514.5000000000        0.6716758349        0.0667709306
      516.2500000000        0.8092991119        0.0923341851
      518.0000000000        1.0032341966        0.1324403588
      519.7500000000        1.2876033246        0.1981764184
      521.5000000000        1.7238190736        0.3107476974
      523.2500000000        2.4262291312        0.5092837931
      525.0000000000        3.5896589992        0.8464244687
      526.7500000000        5.4424260585        1.2536469140
