#debyer-pattern x-ray Q cut-off=246.118
#from 0.1 to 2 step 0.01
0.105 2591.46
0.115 2205.13
0.125 2193.59
0.135 2091.48
0.145 1879.3
0.155 1238.18
0.165 577.36
0.175 333.213
0.185 314.762
0.195 304.722
0.205 308.028
0.215 283.968
0.225 198.593
0.235 194.296
0.245 421.127
0.255 756.627
0.265 868.926
0.275 615.859
0.285 252.85
0.295 97.19
0.305 123.696
0.315 123.431
0.325 75.3939
0.335 69.2628
0.345 77.2966
0.355 55.2965
0.365 43.9278
0.375 47.6597
0.385 30.2854
0.395 16.159
0.405 28.7106
0.415 34.0548
0.425 25.4186
0.435 26.6233
0.445 25.5042
0.455 16.8114
0.465 26.5589
0.475 39.6342
0.485 23.5004
0.495 15.2854
0.505 62.1523
0.515 122.335
0.525 126.363
0.535 79.4224
0.545 34.8757
0.555 17.1168
0.565 14.2487
0.575 13.0475
0.585 11.9794
0.595 12.4431
0.605 12.8989
0.615 11.7721
0.625 10.9247
0.635 13.8777
0.645 22.8136
0.655 38.1929
0.665 57.1163
0.675 72.1
0.685 76.5724
0.695 70.1662
0.705 56.7866
0.715 42.643
0.725 34.1391
0.735 31.3595
0.745 29.1863
0.755 26.9841
0.765 27.4692
0.775 28.4924
0.785 26.5254
0.795 23.0461
0.805 20.5427
0.815 18.6614
0.825 16.7409
0.835 14.846
0.845 12.948
0.855 11.5432
0.865 11.2652
0.875 11.8366
0.885 12.4161
0.895 12.1025
0.905 10.7232
0.915 9.45323
0.925 8.96998
0.935 8.30238
0.945 7.36502
0.955 7.79708
0.965 9.82662
0.975 11.4429
0.985 11.335
0.995 10.2309
1.005 9.61239
1.015 10.8651
1.025 14.5668
1.035 18.6473
1.045 19.1718
1.055 15.8051
1.065 13.5836
1.075 15.5632
1.085 17.8143
1.095 15.9887
1.105 12.1458
1.115 10.5199
1.125 10.8447
1.135 10.3952
1.145 9.16367
1.155 8.85445
1.165 9.64112
1.175 10.8832
1.185 11.9217
1.195 11.2955
1.205 9.12599
1.215 8.77071
1.225 11.9815
1.235 16.0463
1.245 18.2468
1.255 17.6625
1.265 13.685
1.275 10.3589
1.285 16.5087
1.295 31.4715
1.305 40.0435
1.315 32.9536
1.325 20.4332
1.335 15.1296
1.345 15.8675
1.355 16.9183
1.365 18.6792
1.375 22.6918
1.385 27.5557
1.395 32.5781
1.405 38.023
1.415 42.2537
1.425 43.3403
1.435 42.2689
1.445 41.8337
1.455 42.958
1.465 43.8274
1.475 42.6795
1.485 40.0815
1.495 38.5294
1.505 40.5251
1.515 45.5928
1.525 49.6948
1.535 51.2314
1.545 54.9689
1.555 63.5482
1.565 69.8309
1.575 66.5763
1.585 57.9341
1.595 52.3229
1.605 50.9773
1.615 51.3439
1.625 53.6396
1.635 57.6512
1.645 60.3932
1.655 60.682
1.665 60.4864
1.675 61.1638
1.685 62.3683
1.695 63.5558
1.705 64.2278
1.715 64.0235
1.725 63.1929
1.735 62.0048
1.745 60.1469
1.755 57.2865
1.765 53.4984
1.775 48.9043
1.785 43.6782
1.795 38.7704
1.805 35.8214
1.815 35.2826
1.825 35.075
1.835 32.6958
1.845 28.4568
1.855 24.8469
1.865 23.0194
1.875 21.9821
1.885 20.9503
1.895 20.3858
1.905 20.7137
1.915 21.5572
1.925 22.3209
1.935 22.6968
1.945 22.6738
1.955 22.469
1.965 22.3128
1.975 22.2585
1.985 22.5064
1.995 23.6641
